Time (ms),Trajectory Position 1 (mm),Measured Position 1 (mm),Trajectory Position 2 (mm),Measured Position 2 (mm),Trajectory Position 3 (mm),Measured Position 3 (mm)
20.0,116.86331640624995,116.86877343749994,116.67678515624993,116.67480078124993,122.36598828124994,122.36747656249995
30.0,116.86331640624995,116.86877343749994,116.67678515624993,116.67480078124993,122.36598828124994,122.36747656249995
40.0,116.86331640624995,116.86877343749994,116.67678515624993,116.67480078124993,122.36598828124994,122.36747656249995
50.0,116.86331640624995,116.86877343749994,116.67678515624993,116.67480078124993,122.36598828124994,122.36747656249995
60.0,116.86331640624995,116.86877343749994,116.67678515624993,116.67480078124993,122.36598828124994,122.36747656249995
70.0,116.86331640624995,116.86877343749994,116.67827343749994,116.67827343749994,122.36747656249995,122.37094921874994
80.0,116.86083593749993,116.86877343749994,116.68869140624993,116.68769921874994,122.37739843749993,122.37739843749993
90.0,116.84892968749993,116.85587499999994,116.70903124999994,116.70655078124994,122.39773828124993,122.39922656249993
100.0,116.82660546874995,116.83702343749994,116.73978906249995,116.73532421874994,122.42799999999994,122.42799999999994
110.0,116.79485546874994,116.80527343749993,116.77997265624994,116.77649999999994,122.46818359374993,122.46917578124994
120.0,116.75268749999994,116.76360156249994,116.82908593749994,116.82412499999995,122.51729687499993,122.51680078124994
130.0,116.70307812499995,116.71299999999994,116.87869531249993,116.87472656249993,122.56690624999995,122.56789843749993
140.0,116.65297265624994,116.66239843749995,116.92880078124993,116.92235156249994,122.61701171874994,122.61849999999994
150.0,116.60336328124994,116.61477343749995,116.97890624999995,116.97344921874995,122.66711718749994,122.66612499999994
160.0,116.55325781249994,116.56069921874993,117.02901171874994,117.02405078124994,122.71722265624993,122.72019921874994
170.0,116.50414453124993,116.51605078124993,117.07911718749995,117.07167578124994,122.76732812499993,122.76782421874994
180.0,116.46296874999993,116.47189843749995,117.12872656249993,117.12574999999994,122.81693749999994,122.81842578124993
190.0,116.43221093749993,116.44014843749994,117.17883203124994,117.17337499999994,122.86704296874994,122.86952343749994
200.0,116.41137499999994,116.41782421874994,117.22893749999993,117.22397656249994,122.91714843749995,122.92012499999994
210.0,116.40046093749993,116.40839843749994,117.27904296874995,117.27507421874994,122.96725390624994,122.97072656249993
220.0,116.39847656249994,116.40492578124994,117.32914843749994,117.32269921874993,123.01735937499994,123.01835156249993
230.0,116.39847656249994,116.40492578124994,117.37875781249994,117.37677343749995,123.06696874999993,123.07242578124993
240.0,116.39847656249994,116.40492578124994,117.42886328124993,117.42439843749993,123.11707421874995,123.12005078124993
250.0,116.39847656249994,116.40492578124994,117.47896874999994,117.47499999999994,123.16073046874993,123.16469921874993
260.0,116.39847656249994,116.40492578124994,117.52907421874993,117.52262499999993,123.19446484374994,123.19942578124994
270.0,116.39847656249994,116.40492578124994,117.57917968749994,117.57322656249994,123.21827734374993,123.22472656249994
280.0,116.39847656249994,116.40492578124994,117.62878906249993,117.62432421874993,123.23167187499993,123.23762499999994
290.0,116.39847656249994,116.40492578124994,117.67889453124994,117.67194921874993,123.23564062499993,123.24407421874993
300.0,116.39847656249994,116.40492578124994,117.72899999999994,117.72602343749993,123.23564062499993,123.24407421874993
310.0,116.39847656249994,116.40492578124994,117.77910546874993,117.77364843749993,123.23564062499993,123.24407421874993
320.0,116.39847656249994,116.40492578124994,117.82871484374994,117.82424999999994,123.23564062499993,123.24407421874993
330.0,116.39847656249994,116.40492578124994,117.87882031249994,117.87187499999995,123.23564062499993,123.24407421874993
340.0,116.39847656249994,116.40492578124994,117.92892578124994,117.92247656249994,123.23564062499993,123.24407421874993
350.0,116.39847656249994,116.40492578124994,117.97903124999993,117.97655078124994,123.23564062499993,123.24407421874993
360.0,116.39847656249994,116.40492578124994,118.02913671874994,118.02417578124994,123.23564062499993,123.24407421874993
370.0,116.39847656249994,116.40492578124994,118.07874609374994,118.07527343749993,123.23564062499993,123.24407421874993
380.0,116.39847656249994,116.40492578124994,118.12885156249995,118.12289843749994,123.23564062499993,123.24407421874993
390.0,116.39847656249994,116.40492578124994,118.17895703124994,118.17647656249994,123.23564062499993,123.24407421874993
400.0,116.39847656249994,116.40492578124994,118.22906249999994,118.22410156249994,123.23564062499993,123.24407421874993
410.0,116.39847656249994,116.40492578124994,118.27916796874993,118.27519921874993,123.23564062499993,123.24407421874993
420.0,116.39847656249994,116.40492578124994,118.32877734374995,118.32580078124994,123.23564062499993,123.24407421874993
430.0,116.39847656249994,116.40492578124994,118.37888281249994,118.37342578124995,123.23564062499993,123.24407421874993
440.0,116.39847656249994,116.40492578124994,118.42898828124994,118.42749999999994,123.23564062499993,123.24407421874993
450.0,116.39847656249994,116.40492578124994,118.47909374999995,118.47214843749994,123.23564062499993,123.24407421874993
460.0,116.39847656249994,116.40492578124994,118.52870312499994,118.52274999999995,123.23564062499993,123.24407421874993
470.0,116.39847656249994,116.40492578124994,118.57880859374993,118.57335156249994,123.23564062499993,123.24407421874993
480.0,116.39847656249994,116.40492578124994,118.62891406249994,118.62444921874994,123.23564062499993,123.24407421874993
490.0,116.39847656249994,116.40492578124994,118.67901953124995,118.67505078124995,123.23564062499993,123.24407421874993
500.0,116.39847656249994,116.40492578124994,118.72912499999994,118.72267578124993,123.23564062499993,123.24407421874993
510.0,116.39847656249994,116.40492578124994,118.77873437499994,118.77377343749994,123.23564062499993,123.24407421874993
520.0,116.39847656249994,116.40492578124994,118.82883984374993,118.82437499999995,123.23564062499993,123.24407421874993
530.0,116.39847656249994,116.40492578124994,118.87894531249994,118.87497656249994,123.23564062499993,123.24407421874993
540.0,116.39847656249994,116.40492578124994,118.92905078124994,118.92607421874995,123.23564062499993,123.24407421874993
550.0,116.39847656249994,116.40492578124994,118.97915624999995,118.97369921874994,123.23564062499993,123.24407421874993
560.0,116.39847656249994,116.40492578124994,119.02876562499993,119.02430078124993,123.23564062499993,123.24407421874993
570.0,116.39847656249994,116.40492578124994,119.07887109374994,119.07192578124993,123.23564062499993,123.24407421874993
580.0,116.39847656249994,116.40492578124994,119.12897656249993,119.12599999999993,123.23564062499993,123.24407421874993
590.0,116.39847656249994,116.40492578124994,119.17908203124993,119.17362499999993,123.23564062499993,123.24407421874993
600.0,116.39847656249994,116.40492578124994,119.22869140624994,119.22422656249994,123.23564062499993,123.24407421874993
610.0,116.39847656249994,116.40492578124994,119.27879687499994,119.27185156249993,123.23564062499993,123.24407421874993
620.0,116.39847656249994,116.40492578124994,119.32890234374993,119.32294921874993,123.23564062499993,123.24407421874993
630.0,116.39847656249994,116.40492578124994,119.37900781249994,119.37702343749994,123.23564062499993,123.24407421874993
640.0,116.39847656249994,116.40492578124994,119.42911328124994,119.42117578124994,123.23564062499993,123.24407421874993
650.0,116.39847656249994,116.40492578124994,119.47872265624994,119.47524999999993,123.23564062499993,123.24407421874993
660.0,116.39847656249994,116.40492578124994,119.52882812499995,119.52287499999993,123.23564062499993,123.24407421874993
670.0,116.39847656249994,116.40492578124994,119.57893359374994,119.57347656249993,123.23564062499993,123.24407421874993
680.0,116.39847656249994,116.40492578124994,119.62903906249994,119.62457421874993,123.23564062499993,123.24407421874993
690.0,116.39847656249994,116.40492578124994,119.67914453124993,119.67219921874994,123.23564062499993,123.24407421874993
700.0,116.39847656249994,116.40492578124994,119.72875390624995,119.72627343749993,123.23564062499993,123.24407421874993
710.0,116.39847656249994,116.40492578124994,119.77885937499994,119.77389843749994,123.23564062499993,123.24407421874993
720.0,116.39847656249994,116.40492578124994,119.82896484374994,119.82449999999993,123.23564062499993,123.24407421874993
730.0,116.39847656249994,116.40492578124994,119.87907031249993,119.87510156249994,123.23564062499993,123.24407421874993
740.0,116.39847656249994,116.40492578124994,119.92917578124994,119.92272656249995,123.23564062499993,123.24407421874993
750.0,116.39847656249994,116.40492578124994,119.97878515624993,119.97382421874994,123.23564062499993,123.24407421874993
760.0,116.39847656249994,116.40492578124994,120.02889062499995,120.02144921874994,123.23564062499993,123.24407421874993
770.0,116.39847656249994,116.40492578124994,120.07899609374994,120.07552343749994,123.23564062499993,123.24407421874993
780.0,116.39847656249994,116.40492578124994,120.12910156249994,120.12314843749994,123.23564062499993,123.24407421874993
790.0,116.39847656249994,116.40492578124994,120.17871093749993,120.17374999999994,123.23564062499993,123.24407421874993
800.0,116.39847656249994,116.40492578124994,120.22881640624993,120.22435156249995,123.23564062499993,123.24407421874993
810.0,116.39847656249994,116.40492578124994,120.27892187499994,120.27197656249994,123.23564062499993,123.24407421874993
820.0,116.39847656249994,116.40492578124994,120.32902734374994,120.32605078124995,123.23564062499993,123.24407421874993
830.0,116.39847656249994,116.40492578124994,120.37913281249995,120.37367578124994,123.23564062499993,123.24407421874993
840.0,116.39847656249994,116.40492578124994,120.42874218749994,120.42477343749994,123.23564062499993,123.24407421874993
850.0,116.39847656249994,116.40492578124994,120.47884765624994,120.47239843749993,123.23564062499993,123.24407421874993
860.0,116.39847656249994,116.40492578124994,120.52895312499993,120.52597656249995,123.23564062499993,123.24407421874993
870.0,116.39847656249994,116.40492578124994,120.57905859374993,120.57360156249993,123.23564062499993,123.24407421874993
880.0,116.39847656249994,116.40492578124994,120.62916406249994,120.62469921874994,123.23564062499993,123.24407421874993
890.0,116.39847656249994,116.40492578124994,120.67877343749994,120.67530078124994,123.23564062499993,123.24407421874993
900.0,116.39847656249994,116.40492578124994,120.72887890624993,120.71994921874995,123.23564062499993,123.24407421874993
910.0,116.39847656249994,116.40492578124994,120.77898437499994,120.77699999999994,123.23564062499993,123.24407421874993
920.0,116.39847656249994,116.40492578124994,120.82908984374993,120.82164843749995,123.23564062499993,123.24407421874993
930.0,116.39847656249994,116.40492578124994,120.87869921874994,120.87224999999994,123.23564062499993,123.24407421874993
940.0,116.39847656249994,116.40492578124994,120.92880468749993,120.92285156249993,123.23564062499993,123.24407421874993
950.0,116.39847656249994,116.40492578124994,120.97891015624994,120.97394921874994,123.23564062499993,123.24407421874993
960.0,116.39847656249994,116.40492578124994,121.02901562499993,121.02455078124993,123.23564062499993,123.24407421874993
970.0,116.39847656249994,116.40492578124994,121.07912109374993,121.07217578124994,123.23564062499993,123.24407421874993
980.0,116.39847656249994,116.40492578124994,121.12873046874994,121.12327343749995,123.23564062499993,123.24407421874993
990.0,116.39847656249994,116.40492578124994,121.17883593749994,121.17387499999992,123.23564062499993,123.24407421874993
1000.0,116.39847656249994,116.40492578124994,121.22894140624994,121.22447656249993,123.23564062499993,123.24407421874993
1010.0,116.39847656249994,116.40492578124994,121.27904687499993,121.27557421874994,123.23564062499993,123.24407421874993
1020.0,116.39847656249994,116.40492578124994,121.32915234374994,121.32319921874993,123.23564062499993,123.24407421874993
1030.0,116.39847656249994,116.40492578124994,121.37876171874994,121.37380078124994,123.23564062499993,123.24407421874993
1040.0,116.39847656249994,116.40492578124994,121.42886718749995,121.42142578124994,123.23564062499993,123.24407421874993
1050.0,116.39847656249994,116.40492578124994,121.47897265624994,121.47549999999993,123.23564062499993,123.24407421874993
1060.0,116.39847656249994,116.40492578124994,121.52907812499994,121.52312499999994,123.23564062499993,123.24407421874993
1070.0,116.39847656249994,116.40492578124994,121.57868749999993,121.57372656249994,123.23564062499993,123.24407421874993
1080.0,116.39847656249994,116.40492578124994,121.62879296874993,121.62135156249994,123.23564062499993,123.24407421874993
1090.0,116.39847656249994,116.40492578124994,121.67889843749994,121.67244921874993,123.23564062499993,123.24407421874993
1100.0,116.39847656249994,116.40492578124994,121.72900390624994,121.72305078124994,123.23564062499993,123.24407421874993
1110.0,116.39847656249994,116.40492578124994,121.77910937499993,121.77414843749993,123.23564062499993,123.24407421874993
1120.0,116.39847656249994,116.40492578124994,121.82871874999994,121.82474999999994,123.23564062499993,123.24407421874993
1130.0,116.39847656249994,116.40492578124994,121.87882421874993,121.87237499999993,123.23564062499993,123.24407421874993
1140.0,116.39847656249994,116.40492578124994,121.92892968749993,121.92297656249994,123.23564062499993,123.24407421874993
1150.0,116.39847656249994,116.40492578124994,121.97903515624995,121.97407421874993,123.23564062499993,123.24407421874993
1160.0,116.39847656249994,116.40492578124994,122.02914062499994,122.02467578124994,123.23564062499993,123.24407421874993
1170.0,116.39847656249994,116.40492578124994,122.07874999999993,122.07577343749993,123.23564062499993,123.24407421874993
1180.0,116.39847656249994,116.40492578124994,122.12885546874993,122.12339843749993,123.23564062499993,123.24407421874993
1190.0,116.39847656249994,116.40492578124994,122.17896093749994,122.17399999999994,123.23564062499993,123.24407421874993
1200.0,116.39847656249994,116.40492578124994,122.22906640624993,122.22460156249994,123.23564062499993,123.24407421874993
1210.0,116.39847656249994,116.40492578124994,122.27917187499995,122.27222656249994,123.23564062499993,123.24407421874993
1220.0,116.39847656249994,116.40492578124994,122.32878124999993,122.32332421874993,123.23564062499993,123.24407421874993
1230.0,116.39847656249994,116.40492578124994,122.37888671874994,122.37094921874994,123.23564062499993,123.24407421874993
1240.0,116.39847656249994,116.40492578124994,122.42899218749993,122.42502343749993,123.23564062499993,123.24407421874993
1250.0,116.39847656249994,116.40492578124994,122.47909765624993,122.47264843749994,123.23564062499993,123.24407421874993
1260.0,116.39847656249994,116.40492578124994,122.52870703124994,122.52324999999993,123.23564062499993,123.24407421874993
1270.0,116.39847656249994,116.40492578124994,122.57881249999994,122.57385156249994,123.23564062499993,123.24407421874993
1280.0,116.39847656249994,116.40492578124994,122.62891796874993,122.62147656249994,123.23564062499993,123.24407421874993
1290.0,116.39847656249994,116.40492578124994,122.67902343749994,122.67555078124994,123.23564062499993,123.24407421874993
1300.0,116.39847656249994,116.40492578124994,122.72912890624994,122.72317578124994,123.23564062499993,123.24407421874993
1310.0,116.39847656249994,116.40492578124994,122.77873828124994,122.77427343749994,123.23564062499993,123.24407421874993
1320.0,116.39847656249994,116.40492578124994,122.82884374999993,122.82189843749994,123.23564062499993,123.24407421874993
1330.0,116.39847656249994,116.40492578124994,122.87894921874994,122.87547656249993,123.23564062499993,123.24407421874993
1340.0,116.39847656249994,116.40492578124994,122.92905468749994,122.92310156249994,123.23564062499993,123.24407421874993
1350.0,116.39847656249994,116.40492578124994,122.97916015624993,122.97419921874994,123.23564062499993,123.24407421874993
1360.0,116.39847656249994,116.40492578124994,123.02876953124995,123.02480078124992,123.23564062499993,123.24407421874993
1370.0,116.39847656249994,116.40492578124994,123.07887499999994,123.07242578124993,123.23564062499993,123.24407421874993
1380.0,116.39847656249994,116.40492578124994,123.12898046874994,123.12649999999994,123.23564062499993,123.24407421874993
1390.0,116.39847656249994,116.40492578124994,123.17908593749993,123.17412499999995,123.23564062499993,123.24407421874993
1400.0,116.39847656249994,116.40492578124994,123.22869531249994,123.22472656249994,123.23564062499993,123.24407421874993
1410.0,116.39847656249994,116.40492578124994,123.27880078124993,123.27235156249994,123.23564062499993,123.24407421874993
1420.0,116.39847656249994,116.40492578124994,123.32890624999995,123.32344921874994,123.23564062499993,123.24407421874993
1430.0,116.39847656249994,116.40492578124994,123.37901171874994,123.37405078124993,123.23564062499993,123.24407421874993
1440.0,116.39847656249994,116.40492578124994,123.42911718749994,123.42167578124993,123.23564062499993,123.24407421874993
1450.0,116.39847656249994,116.40492578124994,123.47872656249993,123.47574999999993,123.23564062499993,123.24407421874993
1460.0,116.39847656249994,116.40492578124994,123.52883203124993,123.52337499999993,123.23564062499993,123.24407421874993
1470.0,116.39847656249994,116.40492578124994,123.57893749999992,123.57397656249994,123.23564062499993,123.24407421874993
1480.0,116.39847656249994,116.40492578124994,123.62904296874994,123.62507421874993,123.23564062499993,123.24407421874993
1490.0,116.39847656249994,116.40492578124994,123.67914843749995,123.67269921874993,123.23564062499993,123.24407421874993
1500.0,116.39847656249994,116.40492578124994,123.72875781249994,123.72677343749994,123.23564062499993,123.24407421874993
1510.0,116.39847656249994,116.40492578124994,123.77886328124993,123.77439843749994,123.23564062499993,123.24407421874993
1520.0,116.39847656249994,116.40492578124994,123.82896874999993,123.82499999999993,123.23564062499993,123.24407421874993
1530.0,116.39847656249994,116.40492578124994,123.87907421874993,123.87262499999993,123.23564062499993,123.24407421874993
1540.0,116.39847656249994,116.40492578124994,123.92917968749994,123.92322656249993,123.23564062499993,123.24407421874993
1550.0,116.39847656249994,116.40492578124994,123.97878906249994,123.97432421874993,123.23564062499993,123.24407421874993
1560.0,116.39847656249994,116.40492578124994,124.02889453124993,124.02194921874994,123.23564062499993,123.24407421874993
1570.0,116.39847656249994,116.40492578124994,124.07899999999994,124.07602343749993,123.23564062499993,123.24407421874993
1580.0,116.39847656249994,116.40492578124994,124.12910546874993,124.12364843749994,123.23564062499993,123.24407421874993
1590.0,116.39847656249994,116.40492578124994,124.17871484374994,124.17424999999993,123.23564062499993,123.24407421874993
1600.0,116.39847656249994,116.40492578124994,124.22882031249993,124.22187499999994,123.23564062499993,123.24407421874993
1610.0,116.39847656249994,116.40492578124994,124.27892578124994,124.27247656249995,123.23564062499993,123.24407421874993
1620.0,116.39847656249994,116.40492578124994,124.32903124999993,124.32655078124994,123.23564062499993,123.24407421874993
1630.0,116.39847656249994,116.40492578124994,124.37913671874993,124.37417578124993,123.23564062499993,123.24407421874993
1640.0,116.39847656249994,116.40492578124994,124.42874609374994,124.42527343749994,123.23564062499993,123.24407421874993
1650.0,116.39847656249994,116.40492578124994,124.47885156249994,124.47289843749994,123.23564062499993,123.24407421874993
